#
# LBTO Model Atmospheric Extinction Curve 2024
#
# Pressure: 692 hPa (median for site)
# Aerosols: k_0=0.012, a=1.38
#    Ozone: N(O3) = 258 DU
#
# columns:
#  [1] lam = wavelength in Angstroms
#  [2] tot = total extinction in mag/airmass
#
 3200.0 0.950774 
 3200.5 0.947462 
 3201.0 0.937569 
 3201.5 0.927555 
 3202.0 0.918765 
 3202.5 0.910270 
 3203.0 0.902727 
 3203.5 0.895627 
 3204.0 0.891066 
 3204.5 0.888390 
 3205.0 0.885142 
 3205.5 0.881145 
 3206.0 0.876435 
 3206.5 0.869998 
 3207.0 0.863786 
 3207.5 0.858661 
 3208.0 0.853556 
 3208.5 0.848359 
 3209.0 0.843183 
 3209.5 0.839932 
 3210.0 0.836962 
 3210.5 0.835470 
 3211.0 0.834511 
 3211.5 0.834414 
 3212.0 0.834905 
 3212.5 0.835498 
 3213.0 0.836214 
 3213.5 0.836383 
 3214.0 0.835369 
 3214.5 0.834197 
 3215.0 0.832292 
 3215.5 0.830435 
 3216.0 0.829760 
 3216.5 0.829086 
 3217.0 0.832522 
 3217.5 0.836547 
 3218.0 0.848229 
 3218.5 0.862796 
 3219.0 0.874447 
 3219.5 0.884124 
 3220.0 0.888663 
 3220.5 0.886563 
 3221.0 0.883125 
 3221.5 0.876586 
 3222.0 0.870137 
 3222.5 0.864008 
 3223.0 0.857913 
 3223.5 0.855341 
 3224.0 0.852773 
 3224.5 0.859140 
 3225.0 0.866999 
 3225.5 0.871818 
 3226.0 0.875344 
 3226.5 0.873993 
 3227.0 0.868864 
 3227.5 0.862802 
 3228.0 0.855370 
 3228.5 0.847835 
 3229.0 0.839937 
 3229.5 0.832243 
 3230.0 0.825890 
 3230.5 0.819570 
 3231.0 0.813230 
 3231.5 0.806920 
 3232.0 0.802352 
 3232.5 0.798211 
 3233.0 0.793873 
 3233.5 0.789436 
 3234.0 0.785693 
 3234.5 0.782676 
 3235.0 0.779595 
 3235.5 0.776377 
 3236.0 0.773256 
 3236.5 0.770584 
 3237.0 0.767928 
 3237.5 0.766527 
 3238.0 0.765128 
 3238.5 0.765346 
 3239.0 0.765809 
 3239.5 0.767854 
 3240.0 0.770556 
 3240.5 0.773338 
 3241.0 0.776188 
 3241.5 0.778025 
 3242.0 0.778127 
 3242.5 0.777980 
 3243.0 0.776901 
 3243.5 0.775845 
 3244.0 0.775197 
 3244.5 0.774549 
 3245.0 0.776105 
 3245.5 0.777932 
 3246.0 0.787544 
 3246.5 0.800127 
 3247.0 0.810349 
 3247.5 0.818788 
 3248.0 0.822897 
 3248.5 0.820796 
 3249.0 0.818024 
 3249.5 0.813064 
 3250.0 0.808028 
 3250.5 0.801835 
 3251.0 0.795673 
 3251.5 0.790482 
 3252.0 0.785399 
 3252.5 0.783506 
 3253.0 0.782752 
 3253.5 0.784209 
 3254.0 0.787299 
 3254.5 0.788498 
 3255.0 0.786812 
 3255.5 0.784386 
 3256.0 0.779586 
 3256.5 0.774828 
 3257.0 0.770456 
 3257.5 0.766098 
 3258.0 0.761597 
 3258.5 0.757093 
 3259.0 0.753174 
 3259.5 0.749487 
 3260.0 0.746108 
 3260.5 0.742991 
 3261.0 0.740089 
 3261.5 0.737531 
 3262.0 0.735155 
 3262.5 0.733487 
 3263.0 0.731821 
 3263.5 0.730157 
 3264.0 0.728495 
 3264.5 0.726957 
 3265.0 0.725443 
 3265.5 0.723972 
 3266.0 0.722523 
 3266.5 0.721282 
 3267.0 0.720246 
 3267.5 0.719611 
 3268.0 0.719812 
 3268.5 0.720370 
 3269.0 0.723049 
 3269.5 0.725738 
 3270.0 0.729641 
 3270.5 0.733604 
 3271.0 0.735610 
 3271.5 0.737082 
 3272.0 0.736998 
 3272.5 0.735902 
 3273.0 0.734360 
 3273.5 0.732220 
 3274.0 0.730278 
 3274.5 0.728934 
 3275.0 0.727735 
 3275.5 0.729411 
 3276.0 0.731090 
 3276.5 0.737474 
 3277.0 0.744621 
 3277.5 0.751232 
 3278.0 0.757622 
 3278.5 0.761434 
 3279.0 0.762736 
 3279.5 0.762638 
 3280.0 0.759423 
 3280.5 0.755956 
 3281.0 0.750776 
 3281.5 0.745617 
 3282.0 0.741370 
 3282.5 0.737182 
 3283.0 0.732863 
 3283.5 0.728511 
 3284.0 0.724639 
 3284.5 0.721125 
 3285.0 0.717707 
 3285.5 0.714443 
 3286.0 0.711251 
 3286.5 0.708335 
 3287.0 0.705425 
 3287.5 0.703111 
 3288.0 0.700805 
 3288.5 0.698766 
 3289.0 0.696788 
 3289.5 0.694938 
 3290.0 0.693168 
 3290.5 0.691480 
 3291.0 0.689905 
 3291.5 0.688453 
 3292.0 0.687396 
 3292.5 0.686348 
 3293.0 0.685493 
 3293.5 0.684640 
 3294.0 0.684208 
 3294.5 0.683859 
 3295.0 0.683702 
 3295.5 0.683656 
 3296.0 0.683433 
 3296.5 0.682984 
 3297.0 0.682475 
 3297.5 0.681772 
 3298.0 0.681076 
 3298.5 0.680477 
 3299.0 0.679879 
 3299.5 0.680363 
 3300.0 0.681025 
 3300.5 0.683791 
 3301.0 0.687651 
 3301.5 0.691859 
 3302.0 0.696477 
 3302.5 0.700049 
 3303.0 0.700271 
 3303.5 0.700425 
 3304.0 0.699003 
 3304.5 0.697582 
 3305.0 0.695816 
 3305.5 0.693988 
 3306.0 0.692162 
 3306.5 0.690338 
 3307.0 0.689310 
 3307.5 0.689276 
 3308.0 0.690331 
 3308.5 0.694766 
 3309.0 0.699180 
 3309.5 0.701942 
 3310.0 0.704713 
 3310.5 0.703890 
 3311.0 0.702308 
 3311.5 0.700157 
 3312.0 0.697668 
 3312.5 0.694924 
 3313.0 0.691808 
 3313.5 0.688704 
 3314.0 0.685627 
 3314.5 0.682557 
 3315.0 0.680174 
 3315.5 0.677803 
 3316.0 0.675411 
 3316.5 0.673015 
 3317.0 0.670959 
 3317.5 0.669158 
 3318.0 0.667365 
 3318.5 0.665581 
 3319.0 0.663853 
 3319.5 0.662422 
 3320.0 0.660993 
 3320.5 0.659649 
 3321.0 0.658313 
 3321.5 0.657166 
 3322.0 0.656089 
 3322.5 0.655012 
 3323.0 0.653936 
 3323.5 0.652963 
 3324.0 0.652235 
 3324.5 0.651529 
 3325.0 0.651098 
 3325.5 0.650668 
 3326.0 0.650323 
 3326.5 0.649993 
 3327.0 0.650084 
 3327.5 0.650398 
 3328.0 0.650756 
 3328.5 0.651171 
 3329.0 0.651490 
 3329.5 0.651459 
 3330.0 0.651429 
 3330.5 0.651152 
 3331.0 0.650874 
 3331.5 0.650519 
 3332.0 0.650143 
 3332.5 0.650041 
 3333.0 0.650157 
 3333.5 0.650876 
 3334.0 0.652891 
 3334.5 0.655128 
 3335.0 0.659363 
 3335.5 0.663617 
 3336.0 0.665536 
 3336.5 0.667135 
 3337.0 0.667000 
 3337.5 0.665969 
 3338.0 0.664522 
 3338.5 0.662547 
 3339.0 0.660542 
 3339.5 0.658407 
 3340.0 0.656276 
 3340.5 0.654049 
 3341.0 0.651823 
 3341.5 0.649840 
 3342.0 0.647935 
 3342.5 0.646206 
 3343.0 0.644640 
 3343.5 0.643183 
 3344.0 0.641976 
 3344.5 0.640791 
 3345.0 0.639925 
 3345.5 0.639060 
 3346.0 0.638075 
 3346.5 0.637067 
 3347.0 0.635998 
 3347.5 0.634887 
 3348.0 0.633799 
 3348.5 0.632746 
 3349.0 0.631693 
 3349.5 0.630641 
 3350.0 0.629590 
 3350.5 0.628713 
 3351.0 0.627854 
 3351.5 0.627100 
 3352.0 0.626393 
 3352.5 0.625752 
 3353.0 0.625192 
 3353.5 0.624643 
 3354.0 0.624132 
 3354.5 0.623622 
 3355.0 0.623302 
 3355.5 0.622988 
 3356.0 0.622565 
 3356.5 0.622105 
 3357.0 0.621596 
 3357.5 0.621039 
 3358.0 0.620535 
 3358.5 0.620173 
 3359.0 0.619817 
 3359.5 0.619602 
 3360.0 0.619388 
 3360.5 0.619483 
 3361.0 0.619660 
 3361.5 0.620026 
 3362.0 0.620547 
 3362.5 0.621221 
 3363.0 0.622233 
 3363.5 0.623183 
 3364.0 0.623311 
 3364.5 0.623440 
 3365.0 0.623013 
 3365.5 0.622460 
 3366.0 0.621822 
 3366.5 0.621121 
 3367.0 0.620471 
 3367.5 0.619918 
 3368.0 0.619445 
 3368.5 0.619721 
 3369.0 0.619998 
 3369.5 0.621143 
 3370.0 0.622461 
 3370.5 0.624429 
 3371.0 0.626841 
 3371.5 0.628516 
 3372.0 0.628850 
 3372.5 0.629026 
 3373.0 0.627731 
 3373.5 0.626436 
 3374.0 0.624939 
 3374.5 0.623411 
 3375.0 0.621877 
 3375.5 0.620341 
 3376.0 0.618810 
 3376.5 0.617287 
 3377.0 0.615794 
 3377.5 0.614559 
 3378.0 0.613325 
 3378.5 0.612140 
 3379.0 0.610964 
 3379.5 0.609876 
 3380.0 0.608848 
 3380.5 0.607801 
 3381.0 0.606718 
 3381.5 0.605667 
 3382.0 0.604883 
 3382.5 0.604100 
 3383.0 0.603276 
 3383.5 0.602445 
 3384.0 0.601755 
 3384.5 0.601167 
 3385.0 0.600625 
 3385.5 0.600182 
 3386.0 0.599730 
 3386.5 0.599140 
 3387.0 0.598551 
 3387.5 0.598044 
 3388.0 0.597554 
 3388.5 0.597146 
 3389.0 0.596801 
 3389.5 0.596457 
 3390.0 0.596113 
 3390.5 0.595769 
 3391.0 0.595426 
 3391.5 0.595083 
 3392.0 0.594891 
 3392.5 0.594742 
 3393.0 0.594566 
 3393.5 0.594368 
 3394.0 0.594134 
 3394.5 0.593792 
 3395.0 0.593450 
 3395.5 0.593109 
 3396.0 0.592768 
 3396.5 0.592533 
 3397.0 0.592338 
 3397.5 0.592302 
 3398.0 0.592445 
 3398.5 0.592790 
 3399.0 0.593890 
 3399.5 0.594992 
 3400.0 0.596017 
 3400.5 0.597039 
 3401.0 0.597180 
 3401.5 0.596890 
 3402.0 0.596429 
 3402.5 0.595703 
 3403.0 0.594951 
 3403.5 0.594031 
 3404.0 0.593111 
 3404.5 0.592239 
 3405.0 0.591374 
 3405.5 0.590507 
 3406.0 0.589638 
 3406.5 0.588787 
 3407.0 0.587972 
 3407.5 0.587163 
 3408.0 0.586445 
 3408.5 0.585727 
 3409.0 0.585044 
 3409.5 0.584372 
 3410.0 0.583726 
 3410.5 0.583106 
 3411.0 0.582497 
 3411.5 0.581925 
 3412.0 0.581353 
 3412.5 0.580826 
 3413.0 0.580301 
 3413.5 0.579810 
 3414.0 0.579335 
 3414.5 0.578861 
 3415.0 0.578386 
 3415.5 0.577932 
 3416.0 0.577601 
 3416.5 0.577271 
 3417.0 0.576900 
 3417.5 0.576522 
 3418.0 0.576173 
 3418.5 0.575843 
 3419.0 0.575500 
 3419.5 0.575123 
 3420.0 0.574747 
 3420.5 0.574371 
 3421.0 0.573995 
 3421.5 0.573619 
 3422.0 0.573244 
 3422.5 0.572869 
 3423.0 0.572494 
 3423.5 0.572128 
 3424.0 0.571802 
 3424.5 0.571476 
 3425.0 0.571193 
 3425.5 0.570915 
 3426.0 0.570666 
 3426.5 0.570436 
 3427.0 0.570221 
 3427.5 0.570039 
 3428.0 0.569856 
 3428.5 0.569627 
 3429.0 0.569399 
 3429.5 0.569243 
 3430.0 0.569109 
 3430.5 0.568953 
 3431.0 0.568774 
 3431.5 0.568567 
 3432.0 0.568245 
 3432.5 0.567922 
 3433.0 0.567557 
 3433.5 0.567188 
 3434.0 0.566877 
 3434.5 0.566603 
 3435.0 0.566377 
 3435.5 0.566246 
 3436.0 0.566123 
 3436.5 0.566282 
 3437.0 0.566440 
 3437.5 0.567024 
 3438.0 0.567750 
 3438.5 0.568263 
 3439.0 0.568515 
 3439.5 0.568674 
 3440.0 0.568307 
 3440.5 0.567941 
 3441.0 0.567284 
 3441.5 0.566585 
 3442.0 0.565859 
 3442.5 0.565113 
 3443.0 0.564368 
 3443.5 0.563623 
 3444.0 0.562879 
 3444.5 0.562131 
 3445.0 0.561383 
 3445.5 0.560705 
 3446.0 0.560057 
 3446.5 0.559447 
 3447.0 0.558894 
 3447.5 0.558342 
 3448.0 0.557790 
 3448.5 0.557238 
 3449.0 0.556763 
 3449.5 0.556306 
 3450.0 0.555850 
 3450.5 0.555394 
 3451.0 0.554948 
 3451.5 0.554540 
 3452.0 0.554133 
 3452.5 0.553725 
 3453.0 0.553318 
 3453.5 0.552911 
 3454.0 0.552504 
 3454.5 0.552112 
 3455.0 0.551754 
 3455.5 0.551395 
 3456.0 0.551037 
 3456.5 0.550679 
 3457.0 0.550321 
 3457.5 0.549963 
 3458.0 0.549570 
 3458.5 0.549118 
 3459.0 0.548666 
 3459.5 0.548216 
 3460.0 0.547766 
 3460.5 0.547352 
 3461.0 0.546948 
 3461.5 0.546545 
 3462.0 0.546143 
 3462.5 0.545748 
 3463.0 0.545393 
 3463.5 0.545039 
 3464.0 0.544724 
 3464.5 0.544417 
 3465.0 0.544084 
 3465.5 0.543731 
 3466.0 0.543388 
 3466.5 0.543082 
 3467.0 0.542776 
 3467.5 0.542470 
 3468.0 0.542165 
 3468.5 0.541888 
 3469.0 0.541630 
 3469.5 0.541385 
 3470.0 0.541175 
 3470.5 0.540966 
 3471.0 0.540894 
 3471.5 0.540825 
 3472.0 0.540693 
 3472.5 0.540530 
 3473.0 0.540335 
 3473.5 0.540079 
 3474.0 0.539821 
 3474.5 0.539519 
 3475.0 0.539217 
 3475.5 0.538814 
 3476.0 0.538370 
 3476.5 0.537927 
 3477.0 0.537485 
 3477.5 0.537043 
 3478.0 0.536601 
 3478.5 0.536160 
 3479.0 0.535755 
 3479.5 0.535361 
 3480.0 0.534988 
 3480.5 0.534642 
 3481.0 0.534295 
 3481.5 0.533949 
 3482.0 0.533603 
 3482.5 0.533257 
 3483.0 0.532912 
 3483.5 0.532566 
 3484.0 0.532222 
 3484.5 0.531884 
 3485.0 0.531587 
 3485.5 0.531289 
 3486.0 0.530992 
 3486.5 0.530694 
 3487.0 0.530373 
 3487.5 0.530030 
 3488.0 0.529687 
 3488.5 0.529344 
 3489.0 0.529001 
 3489.5 0.528699 
 3490.0 0.528403 
 3490.5 0.528083 
 3491.0 0.527741 
 3491.5 0.527419 
 3492.0 0.527171 
 3492.5 0.526923 
 3493.0 0.526634 
 3493.5 0.526340 
 3494.0 0.526072 
 3494.5 0.525825 
 3495.0 0.525578 
 3495.5 0.525332 
 3496.0 0.525086 
 3496.5 0.524756 
 3497.0 0.524417 
 3497.5 0.524104 
 3498.0 0.523812 
 3498.5 0.523520 
 3499.0 0.523228 
 3499.5 0.522937 
 3500.0 0.522646 
 3500.5 0.522355 
 3501.0 0.522064 
 3501.5 0.521773 
 3502.0 0.521483 
 3502.5 0.521193 
 3503.0 0.520903 
 3503.5 0.520571 
 3504.0 0.520235 
 3504.5 0.519926 
 3505.0 0.519637 
 3505.5 0.519348 
 3506.0 0.519059 
 3506.5 0.518771 
 3507.0 0.518482 
 3507.5 0.518194 
 3508.0 0.517907 
 3508.5 0.517619 
 3509.0 0.517341 
 3509.5 0.517101 
 3510.0 0.516861 
 3510.5 0.516620 
 3511.0 0.516380 
 3511.5 0.516213 
 3512.0 0.516113 
 3512.5 0.516013 
 3513.0 0.515913 
 3513.5 0.515814 
 3514.0 0.515675 
 3514.5 0.515529 
 3515.0 0.515360 
 3515.5 0.515168 
 3516.0 0.514953 
 3516.5 0.514623 
 3517.0 0.514292 
 3517.5 0.513885 
 3518.0 0.513464 
 3518.5 0.513063 
 3519.0 0.512687 
 3519.5 0.512311 
 3520.0 0.511936 
 3520.5 0.511560 
 3521.0 0.511222 
 3521.5 0.510894 
 3522.0 0.510586 
 3522.5 0.510304 
 3523.0 0.510018 
 3523.5 0.509691 
 3524.0 0.509364 
 3524.5 0.509037 
 3525.0 0.508710 
 3525.5 0.508383 
 3526.0 0.508056 
 3526.5 0.507732 
 3527.0 0.507452 
 3527.5 0.507173 
 3528.0 0.506861 
 3528.5 0.506536 
 3529.0 0.506211 
 3529.5 0.505885 
 3530.0 0.505560 
 3530.5 0.505282 
 3531.0 0.505004 
 3531.5 0.504726 
 3532.0 0.504448 
 3532.5 0.504157 
 3533.0 0.503834 
 3533.5 0.503511 
 3534.0 0.503230 
 3534.5 0.502953 
 3535.0 0.502677 
 3535.5 0.502401 
 3536.0 0.502124 
 3536.5 0.501848 
 3537.0 0.501573 
 3537.5 0.501297 
 3538.0 0.501022 
 3538.5 0.500747 
 3539.0 0.500472 
 3539.5 0.500197 
 3540.0 0.499922 
 3540.5 0.499648 
 3541.0 0.499410 
 3541.5 0.499182 
 3542.0 0.498935 
 3542.5 0.498661 
 3543.0 0.498388 
 3543.5 0.498115 
 3544.0 0.497842 
 3544.5 0.497569 
 3545.0 0.497297 
 3545.5 0.497024 
 3546.0 0.496752 
 3546.5 0.496480 
 3547.0 0.496253 
 3547.5 0.496028 
 3548.0 0.495774 
 3548.5 0.495503 
 3549.0 0.495232 
 3549.5 0.494962 
 3550.0 0.494691 
 3550.5 0.494461 
 3551.0 0.494237 
 3551.5 0.493989 
 3552.0 0.493719 
 3552.5 0.493450 
 3553.0 0.493180 
 3553.5 0.492911 
 3554.0 0.492642 
 3554.5 0.492374 
 3555.0 0.492105 
 3555.5 0.491837 
 3556.0 0.491570 
 3556.5 0.491348 
 3557.0 0.491126 
 3557.5 0.490874 
 3558.0 0.490606 
 3558.5 0.490352 
 3559.0 0.490131 
 3559.5 0.489910 
 3560.0 0.489647 
 3560.5 0.489381 
 3561.0 0.489115 
 3561.5 0.488849 
 3562.0 0.488591 
 3562.5 0.488371 
 3563.0 0.488151 
 3563.5 0.487895 
 3564.0 0.487630 
 3564.5 0.487403 
 3565.0 0.487230 
 3565.5 0.487055 
 3566.0 0.486837 
 3566.5 0.486619 
 3567.0 0.486401 
 3567.5 0.486183 
 3568.0 0.485965 
 3568.5 0.485747 
 3569.0 0.485530 
 3569.5 0.485270 
 3570.0 0.485008 
 3570.5 0.484745 
 3571.0 0.484483 
 3571.5 0.484228 
 3572.0 0.484011 
 3572.5 0.483795 
 3573.0 0.483579 
 3573.5 0.483363 
 3574.0 0.483130 
 3574.5 0.482869 
 3575.0 0.482608 
 3575.5 0.482393 
 3576.0 0.482178 
 3576.5 0.481935 
 3577.0 0.481675 
 3577.5 0.481426 
 3578.0 0.481212 
 3578.5 0.480998 
 3579.0 0.480784 
 3579.5 0.480570 
 3580.0 0.480336 
 3580.5 0.480077 
 3581.0 0.479822 
 3581.5 0.479609 
 3582.0 0.479396 
 3582.5 0.479184 
 3583.0 0.478972 
 3583.5 0.478746 
 3584.0 0.478488 
 3584.5 0.478231 
 3585.0 0.478016 
 3585.5 0.477804 
 3586.0 0.477593 
 3586.5 0.477381 
 3587.0 0.477171 
 3587.5 0.476960 
 3588.0 0.476750 
 3588.5 0.476539 
 3589.0 0.476329 
 3589.5 0.476119 
 3590.0 0.475910 
 3590.5 0.475700 
 3591.0 0.475491 
 3591.5 0.475281 
 3592.0 0.475072 
 3592.5 0.474863 
 3593.0 0.474654 
 3593.5 0.474446 
 3594.0 0.474237 
 3594.5 0.474029 
 3595.0 0.473821 
 3595.5 0.473596 
 3596.0 0.473343 
 3596.5 0.473090 
 3597.0 0.472883 
 3597.5 0.472676 
 3598.0 0.472442 
 3598.5 0.472190 
 3599.0 0.471938 
 3599.5 0.471686 
 3600.0 0.471434 
 3600.5 0.471183 
 3601.0 0.470931 
 3601.5 0.470698 
 3602.0 0.470493 
 3602.5 0.470287 
 3603.0 0.470037 
 3603.5 0.469787 
 3604.0 0.469537 
 3604.5 0.469287 
 3605.0 0.469037 
 3605.5 0.468787 
 3606.0 0.468538 
 3606.5 0.468253 
 3607.0 0.467958 
 3607.5 0.467681 
 3608.0 0.467433 
 3608.5 0.467184 
 3609.0 0.466891 
 3609.5 0.466598 
 3610.0 0.466305 
 3610.5 0.466012 
 3611.0 0.465719 
 3611.5 0.465426 
 3612.0 0.465133 
 3612.5 0.464841 
 3613.0 0.464549 
 3613.5 0.464257 
 3614.0 0.463965 
 3614.5 0.463673 
 3615.0 0.463339 
 3615.5 0.463003 
 3616.0 0.462691 
 3616.5 0.462399 
 3617.0 0.462103 
 3617.5 0.461768 
 3618.0 0.461432 
 3618.5 0.461129 
 3619.0 0.460839 
 3619.5 0.460537 
 3620.0 0.460201 
 3620.5 0.459866 
 3621.0 0.459572 
 3621.5 0.459283 
 3622.0 0.458973 
 3622.5 0.458640 
 3623.0 0.458308 
 3623.5 0.458020 
 3624.0 0.457732 
 3624.5 0.457444 
 3625.0 0.457156 
 3625.5 0.456859 
 3626.0 0.456526 
 3626.5 0.456193 
 3627.0 0.455898 
 3627.5 0.455611 
 3628.0 0.455324 
 3628.5 0.455038 
 3629.0 0.454751 
 3629.5 0.454465 
 3630.0 0.454179 
 3630.5 0.453893 
 3631.0 0.453608 
 3631.5 0.453322 
 3632.0 0.453037 
 3632.5 0.452752 
 3633.0 0.452499 
 3633.5 0.452259 
 3634.0 0.452007 
 3634.5 0.451723 
 3635.0 0.451438 
 3635.5 0.451154 
 3636.0 0.450870 
 3636.5 0.450606 
 3637.0 0.450367 
 3637.5 0.450128 
 3638.0 0.449845 
 3638.5 0.449562 
 3639.0 0.449306 
 3639.5 0.449068 
 3640.0 0.448830 
 3640.5 0.448593 
 3641.0 0.448355 
 3641.5 0.448118 
 3642.0 0.447881 
 3642.5 0.447631 
 3643.0 0.447350 
 3643.5 0.447068 
 3644.0 0.446826 
 3644.5 0.446590 
 3645.0 0.446354 
 3645.5 0.446118 
 3646.0 0.445883 
 3646.5 0.445647 
 3647.0 0.445412 
 3647.5 0.445151 
 3648.0 0.444871 
 3648.5 0.444598 
 3649.0 0.444364 
 3649.5 0.444129 
 3650.0 0.443895 
 3650.5 0.443661 
 3651.0 0.443427 
 3651.5 0.443193 
 3652.0 0.442959 
 3652.5 0.442688 
 3653.0 0.442410 
 3653.5 0.442132 
 3654.0 0.441855 
 3654.5 0.441577 
 3655.0 0.441344 
 3655.5 0.441111 
 3656.0 0.440879 
 3656.5 0.440647 
 3657.0 0.440415 
 3657.5 0.440183 
 3658.0 0.439951 
 3658.5 0.439720 
 3659.0 0.439488 
 3659.5 0.439257 
 3660.0 0.439026 
 3660.5 0.438795 
 3661.0 0.438564 
 3661.5 0.438334 
 3662.0 0.438104 
 3662.5 0.437873 
 3663.0 0.437643 
 3663.5 0.437413 
 3664.0 0.437184 
 3664.5 0.436954 
 3665.0 0.436725 
 3665.5 0.436495 
 3666.0 0.436266 
 3666.5 0.436037 
 3667.0 0.435782 
 3667.5 0.435509 
 3668.0 0.435243 
 3668.5 0.435015 
 3669.0 0.434787 
 3669.5 0.434559 
 3670.0 0.434331 
 3670.5 0.434103 
 3671.0 0.433876 
 3671.5 0.433648 
 3672.0 0.433421 
 3672.5 0.433194 
 3673.0 0.432967 
 3673.5 0.432741 
 3674.0 0.432514 
 3674.5 0.432288 
 3675.0 0.432062 
 3675.5 0.431836 
 3676.0 0.431610 
 3676.5 0.431384 
 3677.0 0.431158 
 3677.5 0.430933 
 3678.0 0.430708 
 3678.5 0.430483 
 3679.0 0.430258 
 3679.5 0.430033 
 3680.0 0.429808 
 3680.5 0.429584 
 3681.0 0.429359 
 3681.5 0.429135 
 3682.0 0.428911 
 3682.5 0.428687 
 3683.0 0.428464 
 3683.5 0.428240 
 3684.0 0.428017 
 3684.5 0.427794 
 3685.0 0.427571 
 3685.5 0.427348 
 3686.0 0.427125 
 3686.5 0.426902 
 3687.0 0.426680 
 3687.5 0.426458 
 3688.0 0.426235 
 3688.5 0.426013 
 3689.0 0.425792 
 3689.5 0.425570 
 3690.0 0.425348 
 3690.5 0.425127 
 3691.0 0.424906 
 3691.5 0.424685 
 3692.0 0.424464 
 3692.5 0.424243 
 3693.0 0.424023 
 3693.5 0.423802 
 3694.0 0.423582 
 3694.5 0.423362 
 3695.0 0.423142 
 3695.5 0.422922 
 3696.0 0.422702 
 3696.5 0.422483 
 3697.0 0.422264 
 3697.5 0.422044 
 3698.0 0.421825 
 3698.5 0.421606 
 3699.0 0.421388 
 3699.5 0.421169 
 3700.0 0.420951 
 3700.5 0.420732 
 3701.0 0.420514 
 3701.5 0.420296 
 3702.0 0.420078 
 3702.5 0.419861 
 3703.0 0.419643 
 3703.5 0.419426 
 3704.0 0.419208 
 3704.5 0.418991 
 3705.0 0.418774 
 3705.5 0.418558 
 3706.0 0.418341 
 3706.5 0.418125 
 3707.0 0.417908 
 3707.5 0.417692 
 3708.0 0.417476 
 3708.5 0.417260 
 3709.0 0.417044 
 3709.5 0.416829 
 3710.0 0.416613 
 3710.5 0.416398 
 3711.0 0.416183 
 3711.5 0.415968 
 3712.0 0.415753 
 3712.5 0.415539 
 3713.0 0.415324 
 3713.5 0.415110 
 3714.0 0.414895 
 3714.5 0.414681 
 3715.0 0.414467 
 3715.5 0.414254 
 3716.0 0.414040 
 3716.5 0.413826 
 3717.0 0.413613 
 3717.5 0.413400 
 3718.0 0.413187 
 3718.5 0.412974 
 3719.0 0.412761 
 3719.5 0.412549 
 3720.0 0.412336 
 3720.5 0.412124 
 3721.0 0.411912 
 3721.5 0.411700 
 3722.0 0.411488 
 3722.5 0.411276 
 3723.0 0.411064 
 3723.5 0.410853 
 3724.0 0.410642 
 3724.5 0.410430 
 3725.0 0.410219 
 3725.5 0.410009 
 3726.0 0.409798 
 3726.5 0.409587 
 3727.0 0.409377 
 3727.5 0.409167 
 3728.0 0.408956 
 3728.5 0.408747 
 3729.0 0.408537 
 3729.5 0.408327 
 3730.0 0.408117 
 3730.5 0.407908 
 3731.0 0.407699 
 3731.5 0.407490 
 3732.0 0.407281 
 3732.5 0.407072 
 3733.0 0.406863 
 3733.5 0.406655 
 3734.0 0.406446 
 3734.5 0.406238 
 3735.0 0.406070 
 3735.5 0.405905 
 3736.0 0.405723 
 3736.5 0.405515 
 3737.0 0.405307 
 3737.5 0.405100 
 3738.0 0.404893 
 3738.5 0.404686 
 3739.0 0.404479 
 3739.5 0.404272 
 3740.0 0.404065 
 3740.5 0.403859 
 3741.0 0.403652 
 3741.5 0.403446 
 3742.0 0.403240 
 3742.5 0.403034 
 3743.0 0.402828 
 3743.5 0.402622 
 3744.0 0.402417 
 3744.5 0.402211 
 3745.0 0.402006 
 3745.5 0.401801 
 3746.0 0.401596 
 3746.5 0.401391 
 3747.0 0.401186 
 3747.5 0.400982 
 3748.0 0.400777 
